# Pendulum experiment data: length (m), period (s), uncertainty (s)
# Measurements taken for different pendulum lengths
0.25  1.003  0.008
0.30  1.098  0.035
0.35  1.186  0.012
0.40  1.267  0.042
0.45  1.345  0.015
0.50  1.418  0.028
0.55  1.487  0.009
0.60  1.554  0.038
0.65  1.617  0.022
0.70  1.677  0.011
0.75  1.736  0.045
0.80  1.793  0.017
0.85  1.848  0.031
0.90  1.903  0.013
0.95  1.955  0.040
1.00  2.006  0.025
